variables=Time[day],Mean[km],STD[km],Mean-1Sig[km],Mean+1Sig[km]
1.183384999999999820e+02	-1.743658044122717286e+02	6.812720411956462163e-01	-1.750470764534673833e+02	-1.736845323710760738e+02
1.183385618618618338e+02	-1.740972936781566034e+02	6.242460708344980125e-01	-1.747215397489910913e+02	-1.734730476073221155e+02
1.183386237237237140e+02	-1.738307255110467224e+02	5.695578029983365820e-01	-1.744002833140450548e+02	-1.732611677080483901e+02
1.183386855855855657e+02	-1.735628398002719166e+02	5.187153683846879026e-01	-1.740815551686565925e+02	-1.730441244318872407e+02
1.183387474474474317e+02	-1.732956811520255087e+02	4.710601514980762849e-01	-1.737667413035235882e+02	-1.728246210005274293e+02
1.183388093093092976e+02	-1.730308141376199274e+02	4.271490801107771795e-01	-1.734579632177307076e+02	-1.726036650575091471e+02
1.183388711711711494e+02	-1.727626972924283848e+02	3.877645402653314144e-01	-1.731504618326937077e+02	-1.723749327521630619e+02
1.183389330330330154e+02	-1.724983073621550318e+02	3.530150651774067172e-01	-1.728513224273324340e+02	-1.721452922969776296e+02
1.183389948948948813e+02	-1.722318393508724341e+02	3.237222948746004136e-01	-1.725555616457470478e+02	-1.719081170559978204e+02
1.183390567567567473e+02	-1.719658185294929069e+02	3.003642306245496441e-01	-1.722661827601174593e+02	-1.716654542988683545e+02
1.183391186186185990e+02	-1.716997248482865075e+02	2.840828726757514411e-01	-1.719838077209622611e+02	-1.714156419756107539e+02
1.183391804804804650e+02	-1.714370175210177933e+02	2.756852411377344603e-01	-1.717127027621555158e+02	-1.711613322798800709e+02
1.183392423423423310e+02	-1.711716941496850382e+02	2.726121408310689387e-01	-1.714443062905160957e+02	-1.708990820088539806e+02
1.183393042042041827e+02	-1.709079564712678803e+02	2.765970449792977126e-01	-1.711845535162471776e+02	-1.706313594262885829e+02
1.183393660660660629e+02	-1.706440133967018085e+02	2.861689670070190483e-01	-1.709301823637088376e+02	-1.703578444296947794e+02
1.183394279279279147e+02	-1.703823745377507635e+02	2.992751259737908009e-01	-1.706816496637245564e+02	-1.700830994117769706e+02
1.183394897897897664e+02	-1.701192593314363251e+02	3.152743729858555333e-01	-1.704345337044221935e+02	-1.698039849584504566e+02
1.183395516516516466e+02	-1.698566502245560912e+02	3.348488461496962332e-01	-1.701914990707057882e+02	-1.695218013784063942e+02
1.183396135135134983e+02	-1.695946423216113033e+02	3.549719839906010366e-01	-1.699496143056018980e+02	-1.692396703376207086e+02
1.183396753753753785e+02	-1.693356455135954093e+02	3.759117544090176954e-01	-1.697115572680044409e+02	-1.689597337591863777e+02
1.183397372372372303e+02	-1.690755195088713378e+02	3.969496861207786886e-01	-1.694724691949921294e+02	-1.686785698227505463e+02
1.183397990990990820e+02	-1.688149506941315394e+02	4.169085603993610833e-01	-1.692318592545308888e+02	-1.683980421337321900e+02
1.183398609609609622e+02	-1.685565717935471923e+02	4.378611510371551718e-01	-1.689944329445843607e+02	-1.681187106425100239e+02
1.183399228228228139e+02	-1.682969764311773133e+02	4.575168146242023504e-01	-1.687544932458015126e+02	-1.678394596165531141e+02
1.183399846846846657e+02	-1.680375610356581149e+02	4.778750445078113196e-01	-1.685154360801659266e+02	-1.675596859911503032e+02
1.183400465465465459e+02	-1.677783627297231135e+02	4.956465832851496556e-01	-1.682740093130082641e+02	-1.672827161464379628e+02
1.183401084084083976e+02	-1.675232007261370484e+02	5.140339608511117486e-01	-1.680372346869881710e+02	-1.670091667652859257e+02
1.183401702702702494e+02	-1.672656705991649915e+02	5.312544603089489614e-01	-1.677969250594739492e+02	-1.667344161388560337e+02
1.183402321321321295e+02	-1.670082619009211555e+02	5.471196679889788195e-01	-1.675553815689101214e+02	-1.664611422329321897e+02
1.183402939939939813e+02	-1.667516955536214596e+02	5.624341346326492408e-01	-1.673141296882540985e+02	-1.661892614189888207e+02
1.183403558558558331e+02	-1.664965464966853688e+02	5.768865612508288221e-01	-1.670734330579361995e+02	-1.659196599354345381e+02
1.183404177177177132e+02	-1.662408408146970658e+02	5.906671104175466036e-01	-1.668315079251146074e+02	-1.656501737042795241e+02
1.183404795795795650e+02	-1.659877695873143466e+02	6.037744253828856156e-01	-1.665915440126972271e+02	-1.653839951619314661e+02
1.183405414414414167e+02	-1.657327800174289223e+02	6.148258447516795622e-01	-1.663476058621806146e+02	-1.651179541726772300e+02
1.183406033033032969e+02	-1.654802933856197740e+02	6.260341702327166802e-01	-1.661063275558524879e+02	-1.648542592153870601e+02
1.183406651651651487e+02	-1.652275208017800026e+02	6.359384515451519393e-01	-1.658634592533251464e+02	-1.645915823502348587e+02
1.183407270270270004e+02	-1.649736986457118348e+02	6.453695123771804321e-01	-1.656190681580890214e+02	-1.643283291333346483e+02
1.183407888888888806e+02	-1.647200728467126680e+02	6.529157716028997083e-01	-1.653729886183155600e+02	-1.640671570751097761e+02
1.183408507507507323e+02	-1.644675449050399720e+02	6.594964452512180886e-01	-1.651270413502911936e+02	-1.638080484597887505e+02
1.183409126126125983e+02	-1.642149572136671054e+02	6.656950766146337850e-01	-1.648806522902817449e+02	-1.635492621370524660e+02
1.183409744744744643e+02	-1.639655208645895357e+02	6.728477794216007890e-01	-1.646383686440111376e+02	-1.632926730851679338e+02
1.183410363363363160e+02	-1.637126159321101966e+02	6.771131824413251232e-01	-1.643897291145515283e+02	-1.630355027496688649e+02
1.183410981981981820e+02	-1.634625993874130927e+02	6.806042120141145846e-01	-1.641432035994272098e+02	-1.627819951753989756e+02
1.183411600600600480e+02	-1.632100003626796649e+02	6.837048784377801613e-01	-1.638937052411174591e+02	-1.625262954842418708e+02
1.183412219219219139e+02	-1.629596505193844962e+02	6.866365251387530622e-01	-1.636462870445232625e+02	-1.622730139942457299e+02
1.183412837837837657e+02	-1.627070287255964161e+02	6.888923165998197540e-01	-1.633959210421962496e+02	-1.620181364089965825e+02
1.183413456456456316e+02	-1.624595758866436768e+02	6.895728599185335650e-01	-1.631491487465622185e+02	-1.617700030267251350e+02
1.183414075075074976e+02	-1.622077558323225901e+02	6.903254522560950956e-01	-1.628980812845786943e+02	-1.615174303800664859e+02
1.183414693693693494e+02	-1.619582095763176426e+02	6.904268283545389462e-01	-1.626486364046721746e+02	-1.612677827479631105e+02
1.183415312312312295e+02	-1.617064823850996618e+02	6.890715971269479878e-01	-1.623955539822266019e+02	-1.610174107879727217e+02
1.183415930930930813e+02	-1.614562841924012275e+02	6.876231023318953861e-01	-1.621439072947331113e+02	-1.607686610900693438e+02
1.183416549549549330e+02	-1.612048283058065294e+02	6.856957761942475971e-01	-1.618905240820007805e+02	-1.605191325296122784e+02
1.183417168168168132e+02	-1.609560242422689100e+02	6.834864644765742403e-01	-1.616395107067454830e+02	-1.602725377777923370e+02
1.183417786786786650e+02	-1.607044246867143045e+02	6.800534548797628753e-01	-1.613844781415940588e+02	-1.600243712318345501e+02
1.183418405405405167e+02	-1.604526880853245814e+02	6.765499451939027686e-01	-1.611292380305184793e+02	-1.597761381401306835e+02
1.183419024024023969e+02	-1.602028649986587823e+02	6.732507934479413647e-01	-1.608761157921067309e+02	-1.595296142052108337e+02
1.183419642642642486e+02	-1.599516795183174054e+02	6.684655279644590165e-01	-1.606201450462818627e+02	-1.592832139903529480e+02
1.183420261261261288e+02	-1.596987444544586197e+02	6.632593281553759157e-01	-1.603620037826139821e+02	-1.590354851263032572e+02
1.183420879879879806e+02	-1.594452455327059965e+02	6.582587465873934729e-01	-1.601035042792933893e+02	-1.587869867861186037e+02
1.183421498498498323e+02	-1.591943351390162036e+02	6.531612055290947350e-01	-1.598474963445453056e+02	-1.585411739334871015e+02
1.183422117117117125e+02	-1.589386450082656381e+02	6.463158459352991159e-01	-1.595849608542009435e+02	-1.582923291623303328e+02
1.183422735735735642e+02	-1.586854915941831052e+02	6.406584482979356121e-01	-1.593261500424810322e+02	-1.580448331458851783e+02
1.183423354354354160e+02	-1.584330899333197351e+02	6.331326217385214727e-01	-1.590662225550582605e+02	-1.577999573115812098e+02
1.183423972972972962e+02	-1.581781970411889802e+02	6.258114313322516997e-01	-1.588040084725212182e+02	-1.575523856098567421e+02
1.183424591591591479e+02	-1.579229353231808375e+02	6.192155389051771097e-01	-1.585421508620860038e+02	-1.573037197842756711e+02
1.183425210210209997e+02	-1.576656306593194188e+02	6.113171315929326610e-01	-1.582769477909123452e+02	-1.570543135277264923e+02
1.183425828828828799e+02	-1.574092648759963140e+02	6.032847620345432871e-01	-1.580125496380308618e+02	-1.568059801139617662e+02
1.183426447447447316e+02	-1.571537135837255619e+02	5.955466709006612680e-01	-1.577492602546262219e+02	-1.565581669128249018e+02
1.183427066066065834e+02	-1.568934933460848526e+02	5.868613764518753051e-01	-1.574803547225367311e+02	-1.563066319696329742e+02
1.183427684684684635e+02	-1.566349981536507414e+02	5.800012944193879694e-01	-1.572149994480701309e+02	-1.560549968592313519e+02
1.183428303303303153e+02	-1.563747421039913092e+02	5.709471643152577158e-01	-1.569456892683065803e+02	-1.558037949396760382e+02
1.183428921921921670e+02	-1.561110301898569901e+02	5.620211513741285581e-01	-1.566730513412311154e+02	-1.555490090384828648e+02
1.183429540540540472e+02	-1.558516316948246185e+02	5.529453460216064986e-01	-1.564045770408462204e+02	-1.552986863488030167e+02
1.183430159159158990e+02	-1.555871698518436403e+02	5.435696019570429582e-01	-1.561307394538006861e+02	-1.550436002498865946e+02
1.183430777777777507e+02	-1.553233269150058788e+02	5.351152645240073724e-01	-1.558584421795298738e+02	-1.547882116504818839e+02
1.183431396396396309e+02	-1.550591188945711565e+02	5.254780494193602713e-01	-1.555845969439905048e+02	-1.545336408451518082e+02
1.183432015015014827e+02	-1.547884411939940321e+02	5.158592167656771421e-01	-1.553043004107597085e+02	-1.542725819772283558e+02
1.183432633633633486e+02	-1.545211449757721880e+02	5.067126022470639368e-01	-1.550278575780192512e+02	-1.540144323735251248e+02
1.183433252252252146e+02	-1.542522707851586006e+02	4.977122935402244486e-01	-1.547499830786988184e+02	-1.537545584916183827e+02
1.183433870870870663e+02	-1.539810122407195934e+02	4.880348155398343546e-01	-1.544690470562594271e+02	-1.534929774251797596e+02
1.183434489489489323e+02	-1.537078795652828944e+02	4.793159814151671805e-01	-1.541871955466980637e+02	-1.532285635838677251e+02
1.183435108108107983e+02	-1.534367365478594820e+02	4.700433570675328632e-01	-1.539067799049270207e+02	-1.529666931907919434e+02
1.183435726726726642e+02	-1.531575670130463891e+02	4.604191334708070960e-01	-1.536179861465171825e+02	-1.526971478795755957e+02
1.183436345345345160e+02	-1.528831884683059457e+02	4.518884742400606780e-01	-1.533350769425460101e+02	-1.524312999940658813e+02
1.183436963963963819e+02	-1.526018284477992211e+02	4.410873804859933300e-01	-1.530429158282852029e+02	-1.521607410673132392e+02
1.183437582582582479e+02	-1.523234113309742099e+02	4.332681421349616202e-01	-1.527566794731091591e+02	-1.518901431888392608e+02
1.183438201201200997e+02	-1.520425000231617503e+02	4.248144511954577984e-01	-1.524673144743572095e+02	-1.516176855719662910e+02
1.183438819819819798e+02	-1.517568033612872682e+02	4.155490569690926672e-01	-1.521723524182563665e+02	-1.513412543043181699e+02
1.183439438438438316e+02	-1.514724829932605132e+02	4.065807769491772139e-01	-1.518790637702096831e+02	-1.510659022163113434e+02
1.183440057057056833e+02	-1.511837985858539071e+02	3.976702222710276069e-01	-1.515814688081249244e+02	-1.507861283635828897e+02
1.183440675675675635e+02	-1.508943315370603671e+02	3.891501386290990294e-01	-1.512834816756894725e+02	-1.505051813984312616e+02
1.183441294294294153e+02	-1.506021179803229870e+02	3.804873833797701166e-01	-1.509826053637027599e+02	-1.502216305969432142e+02
1.183441912912912670e+02	-1.503054664995698033e+02	3.720181926768700853e-01	-1.506774846922466793e+02	-1.499334483068929273e+02
1.183442531531531472e+02	-1.500108739286654043e+02	3.632020440576602116e-01	-1.503740759727230625e+02	-1.496476718846077461e+02
1.183443150150149989e+02	-1.497129131963811233e+02	3.557844867304990055e-01	-1.500686976831116226e+02	-1.493571287096506239e+02
1.183443768768768791e+02	-1.494127814426126974e+02	3.486292629148844413e-01	-1.497614107055275952e+02	-1.490641521796977997e+02
1.183444387387387309e+02	-1.491116890655618761e+02	3.410658303576746264e-01	-1.494527548959195542e+02	-1.487706232352041980e+02
1.183445006006005826e+02	-1.488076807976786426e+02	3.335991805860148984e-01	-1.491412799782646630e+02	-1.484740816170926223e+02
1.183445624624624628e+02	-1.485008032783782426e+02	3.267288027858060162e-01	-1.488275320811640370e+02	-1.481740744755924482e+02
1.183446243243243146e+02	-1.481878328109770280e+02	3.185890680800183561e-01	-1.485064218790570578e+02	-1.478692437428969981e+02
1.183446861861861663e+02	-1.478795298754243959e+02	3.129421562533158396e-01	-1.481924720316777098e+02	-1.475665877191710820e+02
1.183447480480480465e+02	-1.475629989376294873e+02	3.053808535381474232e-01	-1.478683797911676265e+02	-1.472576180840913480e+02
1.183448099099098982e+02	-1.472501571110826148e+02	3.002413801247674763e-01	-1.475503984912073747e+02	-1.469499157309578550e+02
1.183448717717717500e+02	-1.469287591932525459e+02	2.941694390633118328e-01	-1.472229286323158703e+02	-1.466345897541892214e+02
1.183449336336336302e+02	-1.466076965623663000e+02	2.882903049656619365e-01	-1.468959868673319704e+02	-1.463194062574006296e+02
1.183449954954954819e+02	-1.462815391598521160e+02	2.828072437967442676e-01	-1.465643464036488695e+02	-1.459987319160553625e+02
1.183450573573573337e+02	-1.459529000370831682e+02	2.771566664759837484e-01	-1.462300567035591428e+02	-1.456757433706071936e+02
1.183451192192192138e+02	-1.456241923399657026e+02	2.726170832327836080e-01	-1.458968094231984765e+02	-1.453515752567329287e+02
1.183451810810810656e+02	-1.452952457473062111e+02	2.677925730579863162e-01	-1.455630383203641998e+02	-1.450274531742482225e+02
1.183452429429429174e+02	-1.449570768374136378e+02	2.627736979531474226e-01	-1.452198505353667883e+02	-1.446943031394604873e+02
1.183453048048047975e+02	-1.446218992374322738e+02	2.589421060997377233e-01	-1.448808413435320119e+02	-1.443629571313325357e+02
1.183453666666666493e+02	-1.442756242065830747e+02	2.546400075872341517e-01	-1.445302642141703018e+02	-1.440209841989958477e+02
1.183454285285285152e+02	-1.439379422147657692e+02	2.513523828373843139e-01	-1.441892945976031513e+02	-1.436865898319283872e+02
1.183454903903903812e+02	-1.435883509799185447e+02	2.480917031964401387e-01	-1.438364426831149956e+02	-1.433402592767220938e+02
1.183455522522522330e+02	-1.432385962516940197e+02	2.444160870896320836e-01	-1.434830123387836522e+02	-1.429941801646043871e+02
1.183456141141140989e+02	-1.428867105253986267e+02	2.413840161544301699e-01	-1.431280945415530539e+02	-1.426453265092441995e+02
1.183456759759759649e+02	-1.425318668904772323e+02	2.387485939063337947e-01	-1.427706154843835691e+02	-1.422931182965708956e+02
1.183457378378378309e+02	-1.421742645088087897e+02	2.358104006604452019e-01	-1.424100749094692446e+02	-1.419384541081483349e+02
1.183457996996996826e+02	-1.418129965848967231e+02	2.336330372272551470e-01	-1.420466296221239872e+02	-1.415793635476694590e+02
1.183458615615615486e+02	-1.414483482525654949e+02	2.314074228750325757e-01	-1.416797556754405321e+02	-1.412169408296904578e+02
1.183459234234234145e+02	-1.410839009950176433e+02	2.295301904398224235e-01	-1.413134311854574605e+02	-1.408543708045778260e+02
1.183459852852852663e+02	-1.407103367048010512e+02	2.275535036062799332e-01	-1.409378902084073388e+02	-1.404827832011947635e+02
1.183460471471471465e+02	-1.403424526612225236e+02	2.268593043663582054e-01	-1.405693119655888950e+02	-1.401155933568561522e+02
1.183461090090089982e+02	-1.399621267153091821e+02	2.252174881617852176e-01	-1.401873442034709569e+02	-1.397369092271474074e+02
1.183461708708708500e+02	-1.395855624432969080e+02	2.235933315839915003e-01	-1.398091557748809066e+02	-1.393619691117129094e+02
1.183462327327327301e+02	-1.392042161084010843e+02	2.225173886812858437e-01	-1.394267334970823811e+02	-1.389816987197197875e+02
1.183462945945945819e+02	-1.388189106915842785e+02	2.212724081281580712e-01	-1.390401830997124364e+02	-1.385976382834561207e+02
1.183463564564564336e+02	-1.384287218899033860e+02	2.208029903755645840e-01	-1.386495248802789604e+02	-1.382079188995278116e+02
1.183464183183183138e+02	-1.380392247413799680e+02	2.201854675101383996e-01	-1.382594102088901025e+02	-1.378190392738698336e+02
1.183464801801801656e+02	-1.376418691447907747e+02	2.188325775805770868e-01	-1.378607017223713456e+02	-1.374230365672102039e+02
1.183465420420420458e+02	-1.372447082639028793e+02	2.184326656476712203e-01	-1.374631409295505478e+02	-1.370262755982552108e+02
1.183466039039038975e+02	-1.368418286836269999e+02	2.179836111428070655e-01	-1.370598122947698130e+02	-1.366238450724841869e+02
1.183466657657657493e+02	-1.364378761856312110e+02	2.175479804888126034e-01	-1.366554241661200138e+02	-1.362203282051424083e+02
1.183467276276276294e+02	-1.360324505108087010e+02	2.168831023804562441e-01	-1.362493336131891510e+02	-1.358155674084282509e+02
1.183467894894894812e+02	-1.356237706486076320e+02	2.169467638552126376e-01	-1.358407174124628511e+02	-1.354068238847524128e+02
1.183468513513513329e+02	-1.352057303235140466e+02	2.166386435879261163e-01	-1.354223689671019599e+02	-1.349890916799261333e+02
1.183469132132132131e+02	-1.347900388762054718e+02	2.163079242741935693e-01	-1.350063468004796619e+02	-1.345737309519312817e+02
1.183469750750750649e+02	-1.343756681126080821e+02	2.167651859909197898e-01	-1.345924332985989906e+02	-1.341589029266171735e+02
1.183470369369369166e+02	-1.339494321955958753e+02	2.160935818172644574e-01	-1.341655257774131371e+02	-1.337333386137786135e+02
1.183470987987987968e+02	-1.335244081445935080e+02	2.160550687918695589e-01	-1.337404632133853681e+02	-1.333083530758016479e+02
1.183471606606606485e+02	-1.330920842213047877e+02	2.167863812776829602e-01	-1.333088706025824592e+02	-1.328752978400271161e+02
1.183472225225225003e+02	-1.326631757147859787e+02	2.165068362140187275e-01	-1.328796825510000019e+02	-1.324466688785719555e+02
1.183472843843843805e+02	-1.322265557092709969e+02	2.162229320858380099e-01	-1.324427786413568242e+02	-1.320103327771851696e+02
1.183473462462462322e+02	-1.317872349932176519e+02	2.157018367876090137e-01	-1.320029368300052681e+02	-1.315715331564300357e+02
1.183474081081080840e+02	-1.313504609598912225e+02	2.163458921425554238e-01	-1.315668068520337783e+02	-1.311341150677486667e+02
1.183474699699699642e+02	-1.309000730781479831e+02	2.165027377182268120e-01	-1.311165758158662129e+02	-1.306835703404297533e+02
1.183475318318318159e+02	-1.304517725604719942e+02	2.163000248797046499e-01	-1.306680725853516947e+02	-1.302354725355922938e+02
1.183475936936936819e+02	-1.300005705216701699e+02	2.167372722441345545e-01	-1.302173077939143013e+02	-1.297838332494260385e+02
1.183476555555555478e+02	-1.295510395973375637e+02	2.158526495785534627e-01	-1.297668922469161146e+02	-1.293351869477590128e+02
1.183477174174173996e+02	-1.290940416112982518e+02	2.162301791974820808e-01	-1.293102717904957331e+02	-1.288778114321007706e+02
1.183477792792792656e+02	-1.286329837702375585e+02	2.160305709094642590e-01	-1.288490143411470115e+02	-1.284169531993281055e+02
1.183478411411411315e+02	-1.281716300730309683e+02	2.156557637406378569e-01	-1.283872858367716105e+02	-1.279559743092903261e+02
1.183479030030029975e+02	-1.277023064779197767e+02	2.159458369387400600e-01	-1.279182523148585204e+02	-1.274863606409810330e+02
1.183479648648648492e+02	-1.272371981649974231e+02	2.165096810196309451e-01	-1.274537078460170534e+02	-1.270206884839777928e+02
1.183480267267267152e+02	-1.267642752863708893e+02	2.164108519033013933e-01	-1.269806861382741943e+02	-1.265478644344675843e+02
